[DEFAULT]

version = pdfgetx3-1.0-r2815-20150220

# input and output specifications
dataformat = Qnm
inputfile = Au_10nm_d204-00002_00009_sum.chi
backgroundfile = Kapton_d204-00010_00019_sum.chi
outputtype = fq

# PDF calculation setup
mode = xray
wavelength = 0.1839
composition = Au
bgscale = 0.78
rpoly = 0.9
qmaxinst = 28
qmin = 0.1
qmax = 28
rmin = 0
rmax = 60
rstep = 0.01

# End of config --------------------------------------------------------------

#### start data
#S 1
#L Q($\AA^{-1}$)  F($\AA^{-1}$)
0.118421 0.0666735
0.139952 0.0767882
0.161483 0.0863099
0.183014 0.0952483
0.204545 0.103613
0.226076 0.112289
0.247607 0.119892
0.269138 0.126781
0.290669 0.13276
0.3122 0.13886
0.333731 0.144522
0.355263 0.148682
0.376794 0.152381
0.398325 0.155767
0.419856 0.158503
0.441387 0.161482
0.462918 0.163277
0.484449 0.164921
0.50598 0.16674
0.527511 0.16751
0.549042 0.166975
0.570573 0.164728
0.592104 0.159872
0.613635 0.148731
0.635166 0.134225
0.656697 0.11908
0.678228 0.0986791
0.699759 0.0777038
0.721291 0.0577364
0.742822 0.035395
0.764353 0.0137492
0.785884 -0.00864576
0.807415 -0.0315576
0.828946 -0.0548
0.850477 -0.0756106
0.872008 -0.100248
0.893539 -0.121379
0.91507 -0.140489
0.936601 -0.160002
0.958132 -0.176753
0.979663 -0.193551
1.00119 -0.209113
1.02273 -0.227385
1.04426 -0.246772
1.06579 -0.265471
1.08732 -0.283545
1.10885 -0.302178
1.13038 -0.319724
1.15191 -0.335764
1.17344 -0.353949
1.19497 -0.371434
1.2165 -0.388183
1.23804 -0.40452
1.25957 -0.420753
1.2811 -0.43914
1.30263 -0.4598
1.32416 -0.479422
1.34569 -0.496065
1.36722 -0.509106
1.38875 -0.520228
1.41028 -0.530514
1.43182 -0.539913
1.45335 -0.548172
1.47488 -0.556437
1.49641 -0.566118
1.51794 -0.574848
1.53947 -0.584869
1.561 -0.596136
1.58253 -0.606256
1.60406 -0.619155
1.6256 -0.631529
1.64713 -0.6418
1.66866 -0.655746
1.69019 -0.668764
1.71172 -0.67992
1.73325 -0.691628
1.75478 -0.70548
1.77631 -0.718552
1.79784 -0.735563
1.81937 -0.75124
1.84091 -0.764661
1.86244 -0.777844
1.88397 -0.78931
1.9055 -0.801301
1.92703 -0.812757
1.94856 -0.822465
1.97009 -0.833403
1.99162 -0.841345
2.01315 -0.848655
2.03469 -0.8579
2.05622 -0.869078
2.07775 -0.87957
2.09928 -0.887152
2.12081 -0.89476
2.14234 -0.901833
2.16387 -0.910314
2.1854 -0.916142
2.20693 -0.921503
2.22846 -0.925908
2.25 -0.93185
2.27153 -0.938369
2.29306 -0.945615
2.31459 -0.948713
2.33612 -0.947228
2.35765 -0.943452
2.37918 -0.936464
2.40071 -0.925515
2.42224 -0.903166
2.44378 -0.865452
2.46531 -0.800697
2.48684 -0.697086
2.50837 -0.531204
2.5299 -0.245631
2.55143 0.265097
2.57296 1.24981
2.59449 3.04846
2.61602 5.70559
2.63755 8.64731
2.65909 10.7823
2.68062 11.3527
2.70215 9.98628
2.72368 7.32225
2.74521 4.46742
2.76674 2.31753
2.78827 1.04749
2.8098 0.363354
2.83133 -0.000307452
2.85287 -0.195822
2.8744 -0.287724
2.89593 -0.304147
2.91746 -0.240398
2.93899 -0.0776475
2.96052 0.24578
2.98205 0.801689
3.00358 1.67633
3.02511 2.83628
3.04665 4.01089
3.06818 4.79931
3.08971 4.87329
3.11124 4.21468
3.13277 2.98911
3.1543 1.65473
3.17583 0.534878
3.19736 -0.230237
3.21889 -0.708794
3.24042 -1.00594
3.26196 -1.1958
3.28349 -1.32659
3.30502 -1.42198
3.32655 -1.48904
3.34808 -1.54272
3.36961 -1.59084
3.39114 -1.63048
3.41267 -1.66136
3.4342 -1.6906
3.45574 -1.72073
3.47727 -1.74936
3.4988 -1.77436
3.52033 -1.7988
3.54186 -1.82387
3.56339 -1.84595
3.58492 -1.85797
3.60645 -1.86589
3.62798 -1.88006
3.64951 -1.89204
3.67105 -1.90596
3.69258 -1.91633
3.71411 -1.92758
3.73564 -1.93887
3.75717 -1.94934
3.7787 -1.95623
3.80023 -1.96314
3.82176 -1.96952
3.84329 -1.97241
3.86483 -1.97824
3.88636 -1.98624
3.90789 -1.99027
3.92942 -1.99154
3.95095 -1.99322
3.97248 -1.98846
3.99401 -1.97987
4.01554 -1.97518
4.03707 -1.97078
4.05861 -1.9519
4.08014 -1.92391
4.10167 -1.88627
4.1232 -1.8425
4.14473 -1.78426
4.16626 -1.69599
4.18779 -1.55761
4.20932 -1.33729
4.23085 -0.978007
4.25238 -0.358119
4.27392 0.725582
4.29545 2.34067
4.31698 4.29021
4.33851 5.97071
4.36004 6.77665
4.38157 6.42687
4.4031 5.03831
4.42463 3.19225
4.44616 1.47041
4.4677 0.221506
4.48923 -0.554141
4.51076 -1.01432
4.53229 -1.30015
4.55382 -1.47483
4.57535 -1.59223
4.59688 -1.68202
4.61841 -1.74115
4.63994 -1.7828
4.66147 -1.81145
4.68301 -1.83487
4.70454 -1.8519
4.72607 -1.85849
4.7476 -1.851
4.76913 -1.83568
4.79066 -1.82019
4.81219 -1.79424
4.83372 -1.75727
4.85525 -1.7002
4.87679 -1.6226
4.89832 -1.51246
4.91985 -1.34503
4.94138 -1.09349
4.96291 -0.705899
4.98444 -0.0430133
5.00597 1.10583
5.0275 3.0334
5.04903 5.82586
5.07056 8.97401
5.0921 11.4601
5.11363 12.3168
5.13516 11.3318
5.15669 8.86335
5.17822 5.91274
5.19975 3.3723
5.22128 1.767
5.24281 1.08983
5.26434 1.18008
5.28588 1.80312
5.30741 2.51825
5.32894 2.92585
5.35047 2.73869
5.372 1.98134
5.39353 0.889128
5.41506 -0.190077
5.43659 -1.00572
5.45812 -1.54043
5.47966 -1.86183
5.50119 -2.0551
5.52272 -2.18407
5.54425 -2.27574
5.56578 -2.34968
5.58731 -2.40532
5.60884 -2.45555
5.63037 -2.48817
5.6519 -2.51879
5.67343 -2.55933
5.69497 -2.58624
5.7165 -2.60735
5.73803 -2.62063
5.75956 -2.62812
5.78109 -2.64277
5.80262 -2.65941
5.82415 -2.67463
5.84568 -2.68995
5.86721 -2.69551
5.88875 -2.69186
5.91028 -2.68635
5.93181 -2.66651
5.95334 -2.62883
5.97487 -2.58156
5.9964 -2.5223
6.01793 -2.4259
6.03946 -2.28672
6.06099 -2.06658
6.08252 -1.75713
6.10406 -1.37234
6.12559 -0.979269
6.14712 -0.703792
6.16865 -0.625531
6.19018 -0.7592
6.21171 -1.04025
6.23324 -1.38642
6.25477 -1.72293
6.2763 -1.97279
6.29784 -2.13633
6.31937 -2.23613
6.3409 -2.30344
6.36243 -2.32952
6.38396 -2.33776
6.40549 -2.32735
6.42702 -2.29179
6.44855 -2.24815
6.47008 -2.18131
6.49161 -2.08328
6.51315 -1.95612
6.53468 -1.78404
6.55621 -1.54109
6.57774 -1.18433
6.59927 -0.619575
6.6208 0.297366
6.64233 1.66929
6.66386 3.44734
6.68539 5.18953
6.70693 6.45868
6.72846 6.83433
6.74999 6.38341
6.77152 5.51536
6.79305 4.81871
6.81458 4.84417
6.83611 5.61671
6.85764 6.67585
6.87917 7.2804
6.90071 7.00094
6.92224 5.81014
6.94377 4.06875
6.9653 2.2601
6.98683 0.755413
7.00836 -0.256528
7.02989 -0.896897
7.05142 -1.30388
7.07295 -1.56095
7.09448 -1.73345
7.11602 -1.86111
7.13755 -1.94778
7.15908 -2.01585
7.18061 -2.06436
7.20214 -2.08894
7.22367 -2.10119
7.2452 -2.10418
7.26673 -2.0982
7.28826 -2.07729
7.3098 -2.04287
7.33133 -1.98331
7.35286 -1.90201
7.37439 -1.77338
7.39592 -1.56248
7.41745 -1.24124
7.43898 -0.72451
7.46051 0.0775549
7.48204 1.17271
7.50357 2.39777
7.52511 3.46745
7.54664 3.99216
7.56817 3.81196
7.5897 3.02776
7.61123 1.89704
7.63276 0.777682
7.65429 -0.142014
7.67582 -0.773981
7.69735 -1.18262
7.71889 -1.43011
7.74042 -1.58178
7.76195 -1.67028
7.78348 -1.67944
7.80501 -1.63126
7.82654 -1.5297
7.84807 -1.34279
7.8696 -1.00787
7.89113 -0.479199
7.91266 0.334027
7.9342 1.52337
7.95573 2.91255
7.97726 4.13974
7.99879 4.79129
8.02032 4.65479
8.04185 3.77764
8.06338 2.46718
8.08491 1.1012
8.10644 -0.0173871
8.12798 -0.836347
8.14951 -1.39578
8.17104 -1.75679
8.19257 -1.99818
8.2141 -2.1541
8.23563 -2.28958
8.25716 -2.39217
8.27869 -2.45918
8.30022 -2.49616
8.32176 -2.54759
8.34329 -2.58052
8.36482 -2.59294
8.38635 -2.59499
8.40788 -2.59748
8.42941 -2.60172
8.45094 -2.59698
8.47247 -2.57371
8.494 -2.52854
8.51553 -2.50076
8.53707 -2.44451
8.5586 -2.34825
8.58013 -2.21758
8.60166 -2.04308
8.62319 -1.77697
8.64472 -1.39627
8.66625 -0.942935
8.68778 -0.512044
8.70931 -0.248777
8.73085 -0.207374
8.75238 -0.37845
8.77391 -0.704547
8.79544 -1.07095
8.81697 -1.36081
8.8385 -1.51926
8.86003 -1.60369
8.88156 -1.59844
8.90309 -1.53155
8.92462 -1.38266
8.94616 -1.15339
8.96769 -0.812092
8.98922 -0.261338
9.01075 0.605937
9.03228 1.88469
9.05381 3.56046
9.07534 5.37924
9.09687 6.82333
9.1184 7.56411
9.13994 7.55865
9.16147 7.05224
9.183 6.4799
9.20453 6.05685
9.22606 5.64739
9.24759 5.11317
9.26912 4.30175
9.29065 3.30282
9.31218 2.12447
9.33372 1.01305
9.35525 0.182233
9.37678 -0.387207
9.39831 -0.77697
9.41984 -1.03929
9.44137 -1.2135
9.4629 -1.34735
9.48443 -1.43051
9.50596 -1.47433
9.52749 -1.50951
9.54903 -1.51412
9.57056 -1.45942
9.59209 -1.37299
9.61362 -1.21561
9.63515 -0.978225
9.65668 -0.625503
9.67821 -0.198098
9.69974 0.237862
9.72127 0.576267
9.74281 0.704883
9.76434 0.603577
9.78587 0.302356
9.8074 -0.111148
9.82893 -0.531509
9.85046 -0.868572
9.87199 -1.14766
9.89352 -1.32754
9.91505 -1.39648
9.93658 -1.39927
9.95812 -1.32573
9.97965 -1.16646
10.0012 -0.889109
10.0227 -0.449151
10.0442 0.102003
10.0658 0.71404
10.0873 1.24406
10.1088 1.58665
10.1304 1.77449
10.1519 1.83199
10.1734 1.79939
10.195 1.6959
10.2165 1.48002
10.238 1.11224
10.2596 0.576688
10.2811 -0.0141503
10.3026 -0.601849
10.3241 -1.08366
10.3457 -1.43082
10.3672 -1.67154
10.3887 -1.85399
10.4103 -1.98256
10.4318 -2.07587
10.4533 -2.14343
10.4749 -2.16755
10.4964 -2.18189
10.5179 -2.16876
10.5395 -2.16774
10.561 -2.1111
10.5825 -2.00414
10.604 -1.84366
10.6256 -1.63262
10.6471 -1.45401
10.6686 -1.33069
10.6902 -1.29088
10.7117 -1.3626
10.7332 -1.45134
10.7548 -1.53124
10.7763 -1.57401
10.7978 -1.57557
10.8194 -1.47682
10.8409 -1.31347
10.8624 -1.06811
10.884 -0.689434
10.9055 -0.184015
10.927 0.51728
10.9485 1.36707
10.9701 2.1842
10.9916 2.78321
11.0131 3.07991
11.0347 3.10381
11.0562 2.91184
11.0777 2.58539
11.0993 2.17455
11.1208 1.70635
11.1423 1.20381
11.1639 0.728894
11.1854 0.253571
11.2069 -0.183015
11.2284 -0.501193
11.25 -0.741883
11.2715 -0.897017
11.293 -0.992663
11.3146 -0.999375
11.3361 -0.933582
11.3576 -0.872384
11.3792 -0.726235
11.4007 -0.495485
11.4222 -0.120064
11.4438 0.417444
11.4653 1.07158
11.4868 1.81212
11.5084 2.39104
11.5299 2.64421
11.5514 2.54033
11.5729 2.14909
11.5945 1.5919
11.616 1.04241
11.6375 0.593001
11.6591 0.309821
11.6806 0.234866
11.7021 0.322531
11.7237 0.633909
11.7452 1.16707
11.7667 1.86158
11.7883 2.6292
11.8098 3.2706
11.8313 3.54427
11.8528 3.40921
11.8744 2.90619
11.8959 2.1613
11.9174 1.31467
11.939 0.559549
11.9605 -0.0526169
11.982 -0.507841
12.0036 -0.852165
12.0251 -1.09905
12.0466 -1.26496
12.0682 -1.40228
12.0897 -1.51428
12.1112 -1.58226
12.1328 -1.64354
12.1543 -1.66462
12.1758 -1.67942
12.1973 -1.70748
12.2189 -1.72724
12.2404 -1.70424
12.2619 -1.70067
12.2835 -1.65432
12.305 -1.622
12.3265 -1.62149
12.3481 -1.60731
12.3696 -1.63753
12.3911 -1.6115
12.4127 -1.60071
12.4342 -1.60647
12.4557 -1.53409
12.4772 -1.40728
12.4988 -1.23347
12.5203 -1.00331
12.5418 -0.687632
12.5634 -0.344465
12.5849 0.000923781
12.6064 0.419948
12.628 0.796972
12.6495 1.08838
12.671 1.30872
12.6926 1.44821
12.7141 1.35587
12.7356 1.07894
12.7572 0.701665
12.7787 0.244454
12.8002 -0.153247
12.8217 -0.49772
12.8433 -0.72744
12.8648 -0.877291
12.8863 -0.972612
12.9079 -1.00231
12.9294 -0.970057
12.9509 -0.873382
12.9725 -0.702419
12.994 -0.481214
13.0155 -0.218439
13.0371 0.0424173
13.0586 0.211828
13.0801 0.293577
13.1017 0.233273
13.1232 0.112406
13.1447 -0.0344355
13.1662 -0.202192
13.1878 -0.243475
13.2093 -0.216041
13.2308 -0.0444946
13.2524 0.222684
13.2739 0.560068
13.2954 0.977504
13.317 1.36785
13.3385 1.63822
13.36 1.76987
13.3816 1.75624
13.4031 1.60027
13.4246 1.32552
13.4461 1.05076
13.4677 0.68855
13.4892 0.322657
13.5107 0.0145326
13.5323 -0.236099
13.5538 -0.406525
13.5753 -0.528194
13.5969 -0.606637
13.6184 -0.641828
13.6399 -0.665864
13.6615 -0.669162
13.683 -0.590814
13.7045 -0.469077
13.7261 -0.306257
13.7476 -0.191403
13.7691 -0.0809404
13.7906 -0.038933
13.8122 -0.0145967
13.8337 0.0141253
13.8552 -0.00189888
13.8768 -0.0582169
13.8983 4.46152e-05
13.9198 0.176848
13.9414 0.461668
13.9629 0.889661
13.9844 1.37886
14.006 1.84066
14.0275 2.16321
14.049 2.34862
14.0705 2.39959
14.0921 2.269
14.1136 1.98157
14.1351 1.60053
14.1567 1.20548
14.1782 0.799246
14.1997 0.425462
14.2213 0.131771
14.2428 -0.152472
14.2643 -0.380447
14.2859 -0.533915
14.3074 -0.605941
14.3289 -0.631637
14.3505 -0.636328
14.372 -0.622786
14.3935 -0.501364
14.415 -0.43759
14.4366 -0.433688
14.4581 -0.426344
14.4796 -0.444714
14.5012 -0.540596
14.5227 -0.665907
14.5442 -0.706352
14.5658 -0.757288
14.5873 -0.768864
14.6088 -0.652282
14.6304 -0.544912
14.6519 -0.496223
14.6734 -0.452787
14.6949 -0.442842
14.7165 -0.485763
14.738 -0.560988
14.7595 -0.67364
14.7811 -0.796114
14.8026 -0.968628
14.8241 -1.0216
14.8457 -1.09581
14.8672 -1.18841
14.8887 -1.22295
14.9103 -1.24834
14.9318 -1.21468
14.9533 -1.18338
14.9749 -1.12557
14.9964 -1.0358
15.0179 -0.966861
15.0394 -0.865166
15.061 -0.783148
15.0825 -0.717804
15.104 -0.660814
15.1256 -0.604765
15.1471 -0.552991
15.1686 -0.452191
15.1902 -0.412071
15.2117 -0.286536
15.2332 -0.0737612
15.2548 0.147549
15.2763 0.383989
15.2978 0.645501
15.3194 0.900001
15.3409 1.08344
15.3624 1.11752
15.3839 1.05205
15.4055 0.842113
15.427 0.668162
15.4485 0.48545
15.4701 0.270884
15.4916 0.0872718
15.5131 -0.00322326
15.5347 -0.0317033
15.5562 -0.0677582
15.5777 -0.0170652
15.5993 0.0260393
15.6208 0.18887
15.6423 0.344268
15.6638 0.468439
15.6854 0.644933
15.7069 0.759431
15.7284 0.818933
15.75 0.747152
15.7715 0.657314
15.793 0.549322
15.8146 0.541892
15.8361 0.530567
15.8576 0.577131
15.8792 0.70728
15.9007 0.832051
15.9222 0.93188
15.9438 1.00371
15.9653 0.994355
15.9868 0.937949
16.0083 0.781787
16.0299 0.571503
16.0514 0.360493
16.0729 0.123766
16.0945 -0.0628875
16.116 -0.20966
16.1375 -0.351495
16.1591 -0.454029
16.1806 -0.485637
16.2021 -0.524732
16.2237 -0.539513
16.2452 -0.629524
16.2667 -0.636504
16.2882 -0.687406
16.3098 -0.770846
16.3313 -0.735121
16.3528 -0.713277
16.3744 -0.601712
16.3959 -0.477114
16.4174 -0.40453
16.439 -0.263818
16.4605 -0.141584
16.482 -0.0183911
16.5036 0.263382
16.5251 0.42835
16.5466 0.496428
16.5682 0.640044
16.5897 0.707395
16.6112 0.633513
16.6327 0.49507
16.6543 0.286763
16.6758 0.104502
16.6973 -0.0715063
16.7189 -0.228214
16.7404 -0.303476
16.7619 -0.283341
16.7835 -0.260399
16.805 -0.276791
16.8265 -0.270185
16.8481 -0.237977
16.8696 -0.283821
16.8911 -0.238355
16.9126 -0.276122
16.9342 -0.427129
16.9557 -0.476889
16.9772 -0.434371
16.9988 -0.459395
17.0203 -0.528328
17.0418 -0.409775
17.0634 -0.422729
17.0849 -0.41803
17.1064 -0.353414
17.128 -0.420044
17.1495 -0.506585
17.171 -0.59346
17.1926 -0.625801
17.2141 -0.587716
17.2356 -0.702879
17.2571 -0.77013
17.2787 -0.770281
17.3002 -0.730297
17.3217 -0.76836
17.3433 -0.722045
17.3648 -0.639447
17.3863 -0.596978
17.4079 -0.482922
17.4294 -0.485511
17.4509 -0.416974
17.4725 -0.344269
17.494 -0.213864
17.5155 -0.158713
17.537 0.020774
17.5586 0.109869
17.5801 0.260606
17.6016 0.507525
17.6232 0.645254
17.6447 0.7612
17.6662 0.889299
17.6878 0.897567
17.7093 0.79775
17.7308 0.63599
17.7524 0.409227
17.7739 0.398636
17.7954 0.358933
17.817 0.191783
17.8385 0.167589
17.86 0.167588
17.8815 0.134098
17.9031 0.13175
17.9246 0.129715
17.9461 0.172231
17.9677 0.240605
17.9892 0.264343
18.0107 0.293652
18.0323 0.263929
18.0538 0.191766
18.0753 0.247164
18.0969 0.333458
18.1184 0.31132
18.1399 0.352575
18.1615 0.456462
18.183 0.531739
18.2045 0.505929
18.226 0.446443
18.2476 0.388739
18.2691 0.316604
18.2906 0.227899
18.3122 0.158088
18.3337 0.15155
18.3552 -0.0449653
18.3768 -0.195823
18.3983 -0.230412
18.4198 -0.198566
18.4414 -0.139217
18.4629 -0.160131
18.4844 -0.13779
18.5059 -0.130717
18.5275 -0.0484388
18.549 -0.0681636
18.5705 -0.109228
18.5921 -0.0673637
18.6136 -0.106991
18.6351 -0.0545019
18.6567 -0.191363
18.6782 -0.0935547
18.6997 -0.0174987
18.7213 -0.047276
18.7428 -0.0397372
18.7643 -0.056011
18.7859 -0.19609
18.8074 -0.198937
18.8289 -0.184219
18.8504 -0.143089
18.872 -0.145595
18.8935 -0.115893
18.915 -0.188185
18.9366 -0.12772
18.9581 -0.128474
18.9796 -0.0668109
19.0012 -0.0207905
19.0227 -0.0251744
19.0442 0.0455863
19.0658 0.0933994
19.0873 0.015571
19.1088 0.0027663
19.1303 -0.0329861
19.1519 0.0519105
19.1734 0.0707604
19.1949 -0.0355828
19.2165 0.0445876
19.238 0.0485608
19.2595 -0.0252322
19.2811 -0.0558854
19.3026 -0.255153
19.3241 -0.354231
19.3457 -0.348774
19.3672 -0.3348
19.3887 -0.372812
19.4103 -0.386439
19.4318 -0.352776
19.4533 -0.363337
19.4748 -0.377122
19.4964 -0.474922
19.5179 -0.411489
19.5394 -0.277117
19.561 -0.285001
19.5825 -0.30603
19.604 -0.189541
19.6256 -0.10239
19.6471 -0.0965092
19.6686 -0.068105
19.6902 -0.0121937
19.7117 0.0400688
19.7332 0.10857
19.7547 0.0974185
19.7763 0.0293904
19.7978 0.101348
19.8193 0.0887992
19.8409 0.128085
19.8624 0.0489076
19.8839 0.0320209
19.9055 0.0691813
19.927 0.149918
19.9485 0.222749
19.9701 0.3006
19.9916 0.266284
20.0131 0.177548
20.0347 0.190841
20.0562 0.256174
20.0777 0.280642
20.0992 0.345885
20.1208 0.339659
20.1423 0.444949
20.1638 0.426918
20.1854 0.439003
20.2069 0.419203
20.2284 0.309937
20.25 0.313445
20.2715 0.165108
20.293 0.285193
20.3146 0.299717
20.3361 0.212795
20.3576 0.124033
20.3791 0.14982
20.4007 0.244106
20.4222 0.403932
20.4437 0.242895
20.4653 0.155456
20.4868 0.265132
20.5083 0.31714
20.5299 0.341388
20.5514 0.339024
20.5729 0.443227
20.5945 0.506925
20.616 0.438758
20.6375 0.443422
20.6591 0.367547
20.6806 0.490768
20.7021 0.464089
20.7236 0.323403
20.7452 0.206578
20.7667 0.278844
20.7882 0.182704
20.8098 0.133534
20.8313 0.107976
20.8528 -0.00759688
20.8744 -0.127045
20.8959 0.0180673
20.9174 0.0818695
20.939 -0.013619
20.9605 -0.0694336
20.982 0.0372011
21.0036 -0.0100202
21.0251 -0.0289039
21.0466 -0.0693885
21.0681 -0.0602132
21.0897 0.0264805
21.1112 -0.075276
21.1327 -0.0700211
21.1543 -0.0135381
21.1758 -0.0686094
21.1973 -0.0825149
21.2189 0.0258839
21.2404 -0.0600689
21.2619 -0.0513128
21.2835 -0.0943958
21.305 -0.156494
21.3265 -0.112509
21.348 -0.13619
21.3696 -0.0667408
21.3911 0.00534971
21.4126 0.0302009
21.4342 0.060197
21.4557 -0.0769499
21.4772 0.0640544
21.4988 0.0548636
21.5203 0.0588562
21.5418 0.0380899
21.5634 0.154152
21.5849 0.162899
21.6064 0.144109
21.628 0.108761
21.6495 0.03467
21.671 -0.0491792
21.6925 0.0176219
21.7141 0.0609654
21.7356 -0.012485
21.7571 0.0976701
21.7787 0.0425922
21.8002 0.0391679
21.8217 -0.0879392
21.8433 -0.114672
21.8648 -0.0999448
21.8863 -0.0317288
21.9079 -0.00139384
21.9294 0.0684722
21.9509 0.158661
21.9724 0.161484
21.994 0.0702094
22.0155 -0.0982448
22.037 -0.0760349
22.0586 0.0735372
22.0801 0.0288761
22.1016 0.077236
22.1232 -0.0231623
22.1447 -0.0397609
22.1662 -0.0185392
22.1878 0.0161127
22.2093 -0.0888879
22.2308 -0.110646
22.2524 -0.0458058
22.2739 -0.0694032
22.2954 0.11243
22.3169 -0.0388241
22.3385 0.0162031
22.36 0.0406499
22.3815 0.144075
22.4031 0.11053
22.4246 0.0215643
22.4461 0.000903869
22.4677 0.0909656
22.4892 -0.0266916
22.5107 -0.0895972
22.5323 -0.0463154
22.5538 -0.0123346
22.5753 -0.019843
22.5968 0.103217
22.6184 -0.0215108
22.6399 -0.0295933
22.6614 0.00285433
22.683 -0.0596299
22.7045 -0.0289922
22.726 -0.0322056
22.7476 -0.111453
22.7691 -0.0846266
22.7906 -0.0883932
22.8122 -0.0758692
22.8337 -0.163073
22.8552 -0.254956
22.8768 -0.0733165
22.8983 -0.0548968
22.9198 -0.106181
22.9413 -0.0779197
22.9629 -0.149398
22.9844 -0.264049
23.0059 -0.16888
23.0275 -0.0383665
23.049 -0.0611028
23.0705 -0.25314
23.0921 -0.226003
23.1136 -0.126127
23.1351 -0.162323
23.1567 -0.244666
23.1782 -0.186712
23.1997 -0.070882
23.2212 -0.0440725
23.2428 0.0112149
23.2643 -0.0604949
23.2858 0.0145505
23.3074 -0.00890468
23.3289 -0.196619
23.3504 -0.195161
23.372 -0.158835
23.3935 -0.213639
23.415 -0.215899
23.4366 -0.183964
23.4581 -0.109716
23.4796 -0.0877441
23.5012 -0.136706
23.5227 -0.173868
23.5442 -0.14752
23.5657 -0.21034
23.5873 -0.269329
23.6088 -0.228871
23.6303 -0.179376
23.6519 -0.186672
23.6734 -0.228849
23.6949 -0.365974
23.7165 -0.282937
23.738 -0.278516
23.7595 -0.208828
23.7811 -0.161176
23.8026 -0.14436
23.8241 -0.124111
23.8457 -0.173267
23.8672 -0.0784143
23.8887 -0.283044
23.9102 -0.248881
23.9318 -0.316199
23.9533 -0.238906
23.9748 -0.131532
23.9964 -0.227687
24.0179 -0.21793
24.0394 -0.109333
24.061 -0.111283
24.0825 -0.0851259
24.104 -0.0510847
24.1256 -0.0958736
24.1471 -0.0156618
24.1686 -0.110163
24.1901 -0.145473
24.2117 -0.055009
24.2332 -0.057622
24.2547 0.170076
24.2763 0.131638
24.2978 -0.010725
24.3193 0.0525627
24.3409 0.162563
24.3624 0.0921682
24.3839 0.077865
24.4055 0.0200584
24.427 -0.0951365
